param_Ne_Eur	density
10006.1	5.49402e-08
60207.1	5.66827e-08
110408	5.84306e-08
160609	6.01818e-08
210810	6.19339e-08
261011	6.36846e-08
311212	6.54314e-08
361413	6.71722e-08
411614	6.89044e-08
461815	7.06258e-08
512016	7.23342e-08
562217	7.40273e-08
612418	7.57029e-08
662619	7.73589e-08
712820	7.89931e-08
763021	8.06037e-08
813222	8.21886e-08
863423	8.37461e-08
913624	8.52743e-08
963825	8.67716e-08
1.01403e+06	8.82365e-08
1.06423e+06	8.96674e-08
1.11443e+06	9.10631e-08
1.16463e+06	9.24223e-08
1.21483e+06	9.37438e-08
1.26503e+06	9.50266e-08
1.31523e+06	9.62699e-08
1.36543e+06	9.74728e-08
1.41563e+06	9.86346e-08
1.46583e+06	9.97549e-08
1.51604e+06	1.00833e-07
1.56624e+06	1.01869e-07
1.61644e+06	1.02862e-07
1.66664e+06	1.03813e-07
1.71684e+06	1.04721e-07
1.76704e+06	1.05586e-07
1.81724e+06	1.06409e-07
1.86744e+06	1.0719e-07
1.91764e+06	1.07929e-07
1.96784e+06	1.08626e-07
2.01804e+06	1.09284e-07
2.06825e+06	1.09901e-07
2.11845e+06	1.10479e-07
2.16865e+06	1.11018e-07
2.21885e+06	1.1152e-07
2.26905e+06	1.11985e-07
2.31925e+06	1.12414e-07
2.36945e+06	1.12808e-07
2.41965e+06	1.13168e-07
2.46985e+06	1.13496e-07
2.52005e+06	1.13792e-07
2.57026e+06	1.14058e-07
2.62046e+06	1.14295e-07
2.67066e+06	1.14503e-07
2.72086e+06	1.14685e-07
2.77106e+06	1.14841e-07
2.82126e+06	1.14972e-07
2.87146e+06	1.1508e-07
2.92166e+06	1.15167e-07
2.97186e+06	1.15232e-07
3.02206e+06	1.15278e-07
3.07227e+06	1.15306e-07
3.12247e+06	1.15316e-07
3.17267e+06	1.1531e-07
3.22287e+06	1.1529e-07
3.27307e+06	1.15256e-07
3.32327e+06	1.15208e-07
3.37347e+06	1.1515e-07
3.42367e+06	1.15081e-07
3.47387e+06	1.15002e-07
3.52407e+06	1.14915e-07
3.57428e+06	1.1482e-07
3.62448e+06	1.14718e-07
3.67468e+06	1.14611e-07
3.72488e+06	1.14498e-07
3.77508e+06	1.14382e-07
3.82528e+06	1.14262e-07
3.87548e+06	1.14139e-07
3.92568e+06	1.14015e-07
3.97588e+06	1.1389e-07
4.02608e+06	1.13763e-07
4.07628e+06	1.13637e-07
4.12649e+06	1.13512e-07
4.17669e+06	1.13388e-07
4.22689e+06	1.13265e-07
4.27709e+06	1.13144e-07
4.32729e+06	1.13026e-07
4.37749e+06	1.1291e-07
4.42769e+06	1.12798e-07
4.47789e+06	1.12689e-07
4.52809e+06	1.12584e-07
4.57829e+06	1.12483e-07
4.6285e+06	1.12386e-07
4.6787e+06	1.12293e-07
4.7289e+06	1.12205e-07
4.7791e+06	1.12121e-07
4.8293e+06	1.12042e-07
4.8795e+06	1.11968e-07
4.9297e+06	1.11898e-07
4.9799e+06	1.11832e-07
5.0301e+06	1.11771e-07
5.0803e+06	1.11715e-07
5.13051e+06	1.11663e-07
5.18071e+06	1.11614e-07
5.23091e+06	1.1157e-07
5.28111e+06	1.11529e-07
5.33131e+06	1.11492e-07
5.38151e+06	1.11458e-07
5.43171e+06	1.11427e-07
5.48191e+06	1.11398e-07
5.53211e+06	1.11372e-07
5.58231e+06	1.11348e-07
5.63252e+06	1.11325e-07
5.68272e+06	1.11303e-07
5.73292e+06	1.11282e-07
5.78312e+06	1.11262e-07
5.83332e+06	1.11241e-07
5.88352e+06	1.1122e-07
5.93372e+06	1.11197e-07
5.98392e+06	1.11174e-07
6.03412e+06	1.11148e-07
6.08432e+06	1.11119e-07
6.13452e+06	1.11087e-07
6.18473e+06	1.11052e-07
6.23493e+06	1.11012e-07
6.28513e+06	1.10968e-07
6.33533e+06	1.10918e-07
6.38553e+06	1.10862e-07
6.43573e+06	1.10799e-07
6.48593e+06	1.10729e-07
6.53613e+06	1.10651e-07
6.58633e+06	1.10565e-07
6.63653e+06	1.10469e-07
6.68674e+06	1.10363e-07
6.73694e+06	1.10247e-07
6.78714e+06	1.10119e-07
6.83734e+06	1.09979e-07
6.88754e+06	1.09826e-07
6.93774e+06	1.0966e-07
6.98794e+06	1.09479e-07
7.03814e+06	1.09283e-07
7.08834e+06	1.09071e-07
7.13854e+06	1.08842e-07
7.18875e+06	1.08596e-07
7.23895e+06	1.08331e-07
7.28915e+06	1.08047e-07
7.33935e+06	1.07743e-07
7.38955e+06	1.07418e-07
7.43975e+06	1.07072e-07
7.48995e+06	1.06703e-07
7.54015e+06	1.0631e-07
7.59035e+06	1.05893e-07
7.64055e+06	1.05452e-07
7.69076e+06	1.04984e-07
7.74096e+06	1.0449e-07
7.79116e+06	1.03968e-07
7.84136e+06	1.03418e-07
7.89156e+06	1.0284e-07
7.94176e+06	1.02232e-07
7.99196e+06	1.01593e-07
8.04216e+06	1.00924e-07
8.09236e+06	1.00224e-07
8.14256e+06	9.94914e-08
8.19276e+06	9.87266e-08
8.24297e+06	9.7929e-08
8.29317e+06	9.70983e-08
8.34337e+06	9.62341e-08
8.39357e+06	9.53362e-08
8.44377e+06	9.44045e-08
8.49397e+06	9.3439e-08
8.54417e+06	9.24395e-08
8.59437e+06	9.14062e-08
8.64457e+06	9.03394e-08
8.69478e+06	8.92391e-08
8.74498e+06	8.81059e-08
8.79518e+06	8.69401e-08
8.84538e+06	8.57423e-08
8.89558e+06	8.45131e-08
8.94578e+06	8.32533e-08
8.99598e+06	8.19638e-08
9.04618e+06	8.06453e-08
9.09638e+06	7.9299e-08
9.14658e+06	7.7926e-08
9.19678e+06	7.65275e-08
9.24698e+06	7.51048e-08
9.29719e+06	7.36592e-08
9.34739e+06	7.21923e-08
9.39759e+06	7.07056e-08
9.44779e+06	6.92006e-08
9.49799e+06	6.76792e-08
9.54819e+06	6.6143e-08
9.59839e+06	6.45938e-08
9.64859e+06	6.30335e-08
9.69879e+06	6.14641e-08
9.749e+06	5.98873e-08
9.7992e+06	5.83053e-08
9.8494e+06	5.67199e-08
9.8996e+06	5.51332e-08
9.9498e+06	5.35472e-08
1e+07	5.1964e-08
